step,spool,diameter,speed,motorV,extfrq,target,temp
0,0.0,35.6,80.16,23.76,18.73,44.9,79.968
1,0.01,36.9,80.16,24.73,19.34,44.9,80.105
2,0.03,36.2,76.72,26.7,20.66,44.9,80.036
3,0.05,34.4,65.44,29.82,22.92,44.9,80.036
4,0.06,35.3,56.16,34.0,26.21,44.9,80.17399999999999
5,0.08,35.5,49.52,38.97,30.39,44.9,80.139
6,0.1,35.0,45.52,44.43,35.2,44.9,80.036
7,0.12,36.1,45.52,50.07,40.34,44.9,79.968
8,0.14,35.3,47.44,55.58,45.58,44.9,80.105
9,0.17,35.9,50.72,60.73,50.85,44.9,80.208
10,0.2,37.6,54.56,65.39,56.19,44.9,80.139
11,0.23,37.6,58.08,69.5,61.56,44.9,80.17399999999999
12,0.26,38.5,62.32,72.98,66.8,44.9,80.002
13,0.29,40.9,66.96,75.8,71.73,44.9,80.208
14,0.33,42.9,70.72,78.0,76.21,44.9,80.105
15,0.36,40.2,74.0,79.64,80.15,44.9,80.105
16,0.4,35.8,77.04,80.83,83.51,44.9,80.071
17,0.44,30.8,79.76,81.65,86.37,44.9,80.139
18,0.48,31.8,81.92,82.18,88.75,44.9,80.036
19,0.52,31.3,83.36,82.51,90.63,44.9,80.139
20,0.57,32.2,84.8,82.77,91.92,44.9,80.17399999999999
21,0.61,32.5,85.28,83.05,92.54,44.9,80.208
22,0.65,29.9,85.2,83.35,92.39,44.9,80.139
23,0.7,29.0,85.84,83.57,91.2,44.9,80.243
24,0.74,28.8,86.4,83.87,88.66,44.9,80.105
25,0.78,27.6,86.4,84.43,85.02,44.9,80.311
26,0.82,30.3,86.96,84.87,81.1,44.9,80.208
27,0.86,28.6,87.2,84.88,77.55,44.9,80.243
28,0.9,29.7,87.2,84.53,74.78,44.9,80.17399999999999
29,0.93,30.9,87.76,84.1,72.77,44.9,80.17399999999999
30,0.97,33.0,87.92,83.74,71.44,44.9,80.139
31,1.0,32.0,87.6,83.28,70.6,44.9,80.277
32,1.04,33.5,87.52,82.78,69.87,44.9,80.208
33,1.07,35.1,87.36,82.48,69.15,44.9,80.17399999999999
34,1.11,35.6,86.4,83.07,68.64,44.9,80.139
35,1.14,36.4,86.16,85.45,68.38,44.9,80.17399999999999
36,1.18,37.6,86.24,85.99,68.13,44.9,80.17399999999999
37,1.21,36.0,86.72,86.05,68.22,44.9,80.311
38,1.24,38.1,88.24,85.84,68.76,44.9,80.17399999999999
39,1.28,39.9,88.96,85.43,69.74,44.9,80.105
40,1.31,39.0,88.8,84.91,71.03,44.9,80.243
41,1.35,40.5,88.88,84.43,72.38,44.9,80.346
42,1.38,41.8,88.8,84.13,73.45,44.9,80.277
43,1.42,41.2,88.32,84.18,74.03,44.9,80.139
44,1.46,43.8,88.0,84.72,74.44,44.9,80.17399999999999
45,1.49,44.1,87.84,85.52,75.5,44.9,80.277
46,1.53,45.5,87.6,87.09,76.45,44.9,80.277
47,1.57,45.9,88.0,92.97,78.5,44.9,80.243
48,1.6,45.5,89.12,95.81,77.47,44.9,80.277
49,1.64,46.2,91.2,91.13,78.23,44.9,80.243
50,1.68,45.8,94.48,87.77,78.01,44.9,80.243
51,1.72,45.6,95.12,85.18,77.47,44.9,80.311
52,1.75,45.6,92.8,83.87,77.06,44.9,80.277
53,1.79,46.1,90.88,83.73,76.76,44.9,80.243
54,1.83,46.5,89.28,84.06,76.47,44.9,80.208
55,1.87,46.0,87.84,84.69,76.08,44.9,80.277
56,1.9,46.6,87.52,85.84,76.04,44.9,80.346
57,1.94,46.8,87.68,86.92,76.24,44.9,80.17399999999999
58,1.98,45.7,88.0,88.11,76.66,44.9,80.208
59,2.01,47.0,88.96,89.67,77.77,44.9,80.17399999999999
60,2.05,45.9,90.24,91.11,78.88,44.9,80.311
61,2.09,47.4,90.96,92.33,79.66,44.9,80.17399999999999
62,2.13,46.3,92.16,93.14,79.91,44.9,80.208
63,2.17,46.2,93.28,93.64,79.75,44.9,80.105
64,2.2,44.9,93.92,93.93,79.25,44.9,80.243
65,2.24,46.3,94.64,94.21,78.57,44.9,80.105
66,2.28,45.7,94.96,94.52,77.84,44.9,80.17399999999999
67,2.32,45.7,94.8,94.47,77.02,44.9,80.17399999999999
68,2.36,44.9,95.12,94.04,76.61,44.9,80.208
69,2.39,45.2,95.2,93.48,76.74,44.9,80.105
70,2.43,45.6,94.96,93.11,77.03,44.9,80.243
71,2.47,46.4,95.04,92.96,77.3,44.9,80.17399999999999
72,2.5,46.5,94.56,92.92,77.51,44.9,80.036
73,2.54,45.8,94.16,92.99,77.69,44.9,80.17399999999999
74,2.58,46.7,94.4,93.23,77.87,44.9,80.139
75,2.62,44.7,94.32,93.59,78.11,44.9,80.071
76,2.65,46.4,94.4,93.97,78.32,44.9,80.139
77,2.69,44.5,94.72,94.36,78.56,44.9,79.933
78,2.73,45.7,94.56,94.78,78.79,44.9,80.105
79,2.77,43.6,94.8,95.23,79.02,44.9,80.071
80,2.81,44.7,95.28,95.77,79.17,44.9,80.071
81,2.84,44.3,95.52,96.34,79.28,44.9,80.002
82,2.88,45.2,95.92,96.91,79.32,44.9,80.071
83,2.92,44.1,96.08,97.5,79.33,44.9,80.071
84,2.96,45.9,96.16,98.06,79.3,44.9,80.071
85,3.0,46.1,96.72,98.55,79.25,44.9,80.105
86,3.04,46.3,97.36,99.05,79.14,44.9,80.071
87,3.07,45.8,97.28,99.44,79.02,44.9,80.036
88,3.11,46.8,97.76,99.75,78.88,44.9,80.036
89,3.15,45.7,98.0,100.0,78.74,44.9,80.071
90,3.19,46.6,99.36,100.0,78.62,44.9,80.002
91,3.23,47.3,101.04,100.0,78.53,44.9,80.036
92,3.26,48.3,101.36,100.0,78.45,44.9,80.139
93,3.3,48.0,101.28,100.0,78.39,44.9,80.071
94,3.34,47.5,101.2,100.0,78.34,44.9,80.036
95,3.38,46.8,101.04,100.0,78.3,44.9,80.002
96,3.42,46.0,101.2,100.0,78.25,44.9,80.002
97,3.45,44.9,101.12,100.0,78.19,44.9,80.002
98,3.49,43.8,101.12,100.0,78.14,44.9,79.968
99,3.53,43.8,101.2,100.0,78.12,44.9,79.899
100,3.57,45.5,100.96,100.0,78.1,44.9,79.899
101,3.6,45.5,101.2,100.0,78.04,44.9,80.036
102,3.64,44.6,101.2,100.0,77.92,44.9,79.968
103,3.68,45.0,100.96,100.0,77.74,44.9,80.002
104,3.72,46.3,101.2,100.0,77.5,44.9,79.899
105,3.75,45.5,101.2,100.0,77.22,44.9,79.899
106,3.79,45.7,101.04,100.0,76.92,44.9,79.83
107,3.83,45.8,101.12,100.0,76.58,44.9,79.968
108,3.87,46.6,100.96,100.0,76.25,44.9,79.83
109,3.9,45.9,101.04,100.0,75.93,44.9,79.86399999999999
110,3.94,47.1,101.04,100.0,75.67,44.9,79.76100000000001
111,3.98,47.3,100.96,100.0,75.48,44.9,79.76100000000001
112,4.01,47.9,101.04,100.0,75.36,44.9,79.86399999999999
113,4.05,47.3,100.96,100.0,75.28,44.9,79.796
114,4.09,49.1,100.96,100.0,75.25,44.9,79.796
115,4.12,47.9,101.2,100.0,75.23,44.9,79.796
116,4.16,47.9,101.04,100.0,75.22,44.9,79.76100000000001
117,4.2,46.1,101.28,100.0,75.2,44.9,79.83
118,4.23,47.3,101.28,100.0,75.18,44.9,79.727
119,4.27,46.4,101.12,100.0,75.14,44.9,79.83
120,4.31,46.0,101.12,100.0,75.12,44.9,79.76100000000001
121,4.34,46.2,101.12,100.0,75.07,44.9,79.692
122,4.38,46.9,101.2,100.0,75.0,44.9,79.83
123,4.42,45.8,101.36,100.0,74.93,44.9,79.899
124,4.45,47.2,101.28,100.0,74.84,44.9,79.86399999999999
125,4.49,45.6,101.36,100.0,74.76,44.9,79.83
126,4.53,47.1,101.36,100.0,74.68,44.9,79.76100000000001
127,4.56,44.2,101.28,100.0,74.63,44.9,79.76100000000001
128,4.6,47.9,101.36,100.0,74.59,44.9,79.727
129,4.64,46.2,101.36,100.0,74.6,44.9,79.76100000000001
130,4.67,47.7,101.52,100.0,74.62,44.9,79.692
131,4.71,50.0,101.6,100.0,74.65,44.9,79.727
132,4.74,45.5,101.44,100.0,74.7,44.9,79.83
133,4.78,48.0,101.52,100.0,74.74,44.9,79.796
134,4.82,43.6,101.52,100.0,74.8,44.9,79.76100000000001
135,4.85,40.7,101.36,100.0,74.88,44.9,79.76100000000001
136,4.89,43.5,101.44,100.0,74.97,44.9,79.658
137,4.93,40.2,101.2,100.0,75.08,44.9,79.727
138,4.96,43.2,101.28,100.0,75.17,44.9,79.796
139,5.0,40.2,101.44,100.0,75.26,44.9,79.589
140,5.04,42.9,101.28,100.0,75.32,44.9,79.727
141,5.07,40.5,101.6,100.0,75.36,44.9,79.624
142,5.11,41.9,101.44,100.0,75.37,44.9,79.727
143,5.15,39.8,101.28,100.0,75.37,44.9,79.692
144,5.18,39.5,101.44,100.0,75.37,44.9,79.624
145,5.22,40.2,101.36,100.0,75.37,44.9,79.76100000000001
146,5.26,40.8,101.52,100.0,75.39,44.9,79.692
147,5.29,40.9,101.52,100.0,75.43,44.9,79.727
148,5.33,41.4,101.28,100.0,75.49,44.9,79.589
149,5.37,41.1,101.52,100.0,75.55,44.9,79.692
150,5.4,43.0,101.44,100.0,75.61,44.9,79.555
151,5.44,41.7,101.44,100.0,75.67,44.9,79.692
152,5.48,40.4,101.36,100.0,75.73,44.9,79.589
153,5.51,41.6,101.12,100.0,75.77,44.9,79.658
154,5.55,42.4,101.28,100.0,75.8,44.9,79.692
155,5.59,41.0,101.2,100.0,75.83,44.9,79.658
156,5.62,42.1,100.96,100.0,75.84,44.9,79.727
157,5.66,43.5,100.96,100.0,75.85,44.9,79.555
158,5.7,43.5,100.8,100.0,75.85,44.9,79.692
159,5.73,42.6,100.88,100.0,75.85,44.9,79.521
160,5.77,45.1,101.04,100.0,75.85,44.9,79.796
161,5.81,44.2,100.8,100.0,75.84,44.9,79.727
162,5.85,46.0,100.96,100.0,75.83,44.9,79.727
163,5.88,45.8,100.96,100.0,75.82,44.9,79.658
164,5.92,46.4,100.88,100.0,75.8,44.9,79.727
165,5.96,46.8,101.12,100.0,75.77,44.9,79.796
166,5.99,45.6,101.12,100.0,75.76,44.9,79.692
167,6.03,46.6,101.04,100.0,75.75,44.9,79.624
168,6.07,47.5,100.88,100.0,75.76,44.9,79.658
169,6.1,47.4,100.8,100.0,75.77,44.9,79.796
170,6.14,48.1,100.88,100.0,75.79,44.9,79.76100000000001
171,6.18,47.8,100.96,100.0,75.8,44.9,79.692
172,6.21,48.0,100.8,100.0,75.8,44.9,79.83
173,6.25,47.9,100.96,100.0,75.79,44.9,79.76100000000001
174,6.29,48.7,100.8,100.0,75.77,44.9,79.589
175,6.32,47.7,100.8,100.0,75.74,44.9,79.692
176,6.36,47.0,100.8,100.0,75.72,44.9,79.727
177,6.4,46.6,100.64,100.0,75.7,44.9,79.83
178,6.43,44.9,100.48,100.0,75.69,44.9,79.727
179,6.47,46.9,100.48,100.0,75.69,44.9,79.796
180,6.51,47.4,100.48,100.0,75.69,44.9,79.796
181,6.55,47.9,100.96,100.0,75.68,44.9,79.692
182,6.58,47.2,100.8,100.0,75.68,44.9,79.76100000000001
183,6.62,48.1,100.64,100.0,75.66,44.9,79.83
184,6.66,48.7,100.88,100.0,75.63,44.9,79.692
185,6.69,47.6,100.56,100.0,75.62,44.9,79.76100000000001
186,6.73,47.0,100.64,100.0,75.63,44.9,79.899
187,6.77,46.5,100.88,100.0,75.66,44.9,79.899
188,6.8,49.8,100.88,100.0,75.71,44.9,79.86399999999999
189,6.84,49.6,100.96,100.0,75.75,44.9,79.83
190,6.88,50.4,100.96,100.0,75.79,44.9,79.86399999999999
191,6.91,50.4,100.96,100.0,75.82,44.9,79.83
192,6.95,50.3,100.88,100.0,75.85,44.9,79.83
193,6.99,50.5,100.72,100.0,75.86,44.9,79.933
194,7.02,51.2,100.96,100.0,75.87,44.9,79.83
195,7.06,54.9,100.88,100.0,75.85,44.9,79.899
196,7.1,54.5,100.72,100.0,75.8,44.9,79.86399999999999
197,7.13,51.8,100.8,100.0,75.73,44.9,79.968
198,7.17,52.4,100.64,100.0,75.67,44.9,79.899
199,7.21,50.5,100.72,100.0,75.62,44.9,80.002
200,7.24,49.2,100.88,100.0,75.59,44.9,79.899
201,7.28,51.7,100.72,100.0,75.57,44.9,79.968
202,7.32,51.9,100.8,100.0,75.54,44.9,79.968
203,7.36,52.1,100.64,100.0,75.49,44.9,79.86399999999999
204,7.39,55.2,100.64,100.0,75.4,44.9,79.83
205,7.43,54.0,100.96,100.0,75.29,44.9,79.86399999999999
206,7.47,51.7,101.04,100.0,75.16,44.9,79.968
207,7.5,50.6,100.96,100.0,75.05,44.9,79.86399999999999
208,7.54,49.6,100.8,100.0,74.97,44.9,79.968
209,7.57,50.8,100.56,100.0,74.94,44.9,79.86399999999999
210,7.61,49.3,100.88,100.0,74.97,44.9,80.002
211,7.65,47.8,101.04,100.0,75.04,44.9,79.86399999999999
212,7.68,48.8,100.96,100.0,75.13,44.9,79.968
213,7.72,47.1,100.96,100.0,75.2,44.9,79.86399999999999
214,7.76,47.2,100.72,100.0,75.26,44.9,79.899
215,7.79,47.1,100.8,100.0,75.29,44.9,80.002
216,7.83,46.8,100.96,100.0,75.31,44.9,79.968
217,7.87,45.2,100.8,100.0,75.35,44.9,79.968
218,7.9,45.9,100.96,100.0,75.43,44.9,79.933
219,7.94,43.9,100.96,100.0,75.55,44.9,80.105
220,7.98,45.1,100.8,100.0,75.7,44.9,80.036
221,8.01,41.8,100.96,100.0,75.85,44.9,80.002
222,8.05,45.7,100.8,100.0,76.0,44.9,80.139
223,8.09,45.0,100.8,100.0,76.13,44.9,79.968
224,8.13,47.6,100.88,100.0,76.25,44.9,79.968
225,8.16,45.7,100.8,100.0,76.36,44.9,80.036
226,8.2,45.5,100.88,100.0,76.46,44.9,79.933
227,8.24,45.0,100.8,100.0,76.56,44.9,80.071
228,8.27,47.7,100.72,100.0,76.66,44.9,80.071
229,8.31,47.7,100.8,100.0,76.75,44.9,80.105
230,8.35,47.6,100.72,100.0,76.83,44.9,80.105
231,8.39,44.1,100.8,100.0,76.9,44.9,80.139
232,8.42,44.7,100.88,100.0,76.98,44.9,80.036
233,8.46,44.7,100.72,100.0,77.05,44.9,80.071
234,8.5,47.4,100.96,100.0,77.11,44.9,80.002
235,8.53,47.6,100.88,100.0,77.15,44.9,80.071
236,8.57,47.9,100.8,100.0,77.16,44.9,80.105
237,8.61,48.1,100.96,100.0,77.15,44.9,80.002
238,8.65,48.1,100.8,100.0,77.11,44.9,79.968
239,8.68,48.3,100.8,100.0,77.05,44.9,79.933
240,8.72,47.8,100.96,100.0,77.0,44.9,80.071
241,8.76,49.3,100.72,100.0,76.94,44.9,80.105
242,8.8,49.6,100.96,100.0,76.9,44.9,80.17399999999999
243,8.83,49.8,100.96,100.0,76.85,44.9,80.105
244,8.87,50.2,100.8,100.0,76.79,44.9,80.208
245,8.91,50.5,101.12,100.0,76.73,44.9,79.968
246,8.94,50.7,100.96,100.0,76.67,44.9,80.071
247,8.98,51.2,100.8,100.0,76.62,44.9,80.071
248,9.02,52.1,100.8,100.0,76.56,44.9,80.071
249,9.06,52.4,100.64,100.0,76.48,44.9,80.105
250,9.09,51.1,100.88,100.0,76.39,44.9,80.208
251,9.13,49.8,100.96,100.0,76.3,44.9,80.139
252,9.17,47.1,100.8,100.0,76.23,44.9,80.243
253,9.2,47.4,101.12,100.0,76.2,44.9,80.105
254,9.24,46.7,101.04,100.0,76.18,44.9,80.105
255,9.28,45.7,101.12,100.0,76.17,44.9,80.105
256,9.32,47.0,101.28,100.0,76.14,44.9,80.139
257,9.35,47.0,101.12,100.0,76.1,44.9,80.105
258,9.39,48.6,101.28,100.0,76.07,44.9,80.17399999999999
259,9.43,48.9,101.2,100.0,76.02,44.9,80.071
260,9.46,50.0,100.96,100.0,75.98,44.9,80.105
261,9.5,49.2,101.2,100.0,75.94,44.9,80.277
262,9.54,50.3,101.12,100.0,75.93,44.9,80.243
263,9.57,50.2,101.12,100.0,75.95,44.9,80.071
264,9.61,49.9,101.2,100.0,76.01,44.9,80.105
265,9.65,49.2,100.96,100.0,76.1,44.9,80.208
266,9.68,49.6,101.2,100.0,76.19,44.9,80.17399999999999
267,9.72,49.5,101.2,100.0,76.29,44.9,80.105
268,9.76,50.5,101.04,100.0,76.36,44.9,80.17399999999999
269,9.8,50.1,101.28,100.0,76.41,44.9,80.208
270,9.83,49.4,101.04,100.0,76.43,44.9,80.139
271,9.87,49.7,101.2,100.0,76.44,44.9,80.17399999999999
272,9.91,48.7,101.12,100.0,76.42,44.9,80.105
273,9.94,48.0,100.8,100.0,76.4,44.9,80.002
274,9.98,46.5,101.04,100.0,76.39,44.9,80.139
275,10.02,46.5,101.04,100.0,76.4,44.9,80.036
276,10.06,47.2,100.96,100.0,76.42,44.9,80.17399999999999
277,10.09,46.6,101.12,100.0,76.46,44.9,79.933
278,10.13,48.0,100.96,100.0,76.5,44.9,80.139
279,10.17,46.8,101.12,100.0,76.54,44.9,80.139
280,10.2,48.5,101.04,100.0,76.56,44.9,80.139
281,10.24,47.3,100.96,100.0,76.58,44.9,80.071
282,10.28,46.6,100.96,100.0,76.61,44.9,80.002
283,10.32,46.6,100.8,100.0,76.64,44.9,80.105
284,10.35,44.5,100.8,100.0,76.69,44.9,80.002
285,10.39,44.2,100.96,100.0,76.75,44.9,80.071
286,10.43,43.6,100.88,100.0,76.81,44.9,80.17399999999999
287,10.46,44.9,100.88,99.98,76.87,44.9,80.002
288,10.5,44.8,100.96,99.96,76.93,44.9,80.036
289,10.54,44.3,100.64,99.95,76.97,44.9,80.105
290,10.58,44.4,100.8,99.94,77.01,44.9,80.036
291,10.61,46.2,100.96,99.93,77.04,44.9,80.105
292,10.65,45.3,100.8,99.92,77.06,44.9,80.105
293,10.69,44.3,100.88,99.91,77.09,44.9,80.071
294,10.73,44.4,100.8,99.89,77.12,44.9,79.933
295,10.76,46.5,100.72,99.87,77.17,44.9,80.17399999999999
296,10.8,44.0,100.64,99.87,77.24,44.9,79.933
297,10.84,46.1,100.4,99.88,77.31,44.9,80.105
298,10.87,45.4,100.56,99.9,77.39,44.9,80.071
299,10.91,45.4,100.56,99.93,77.46,44.9,80.105
300,10.95,44.8,100.32,99.96,77.53,44.9,79.899
301,10.99,45.2,100.64,99.98,77.58,44.9,79.86399999999999
302,11.02,45.9,100.64,100.0,77.62,44.9,79.899
303,11.06,47.8,100.64,100.0,77.62,44.9,80.036
304,11.1,47.0,100.96,100.0,77.6,44.9,80.036
305,11.14,45.4,101.12,100.0,77.57,44.9,80.105
306,11.17,44.5,101.28,100.0,77.55,44.9,79.933
307,11.21,44.2,101.12,100.0,77.53,44.9,80.036
308,11.25,44.0,100.96,100.0,77.53,44.9,79.933
309,11.29,45.0,101.2,100.0,77.54,44.9,79.933
310,11.32,44.1,101.2,99.99,77.54,44.9,80.002
311,11.36,42.5,101.36,99.97,77.55,44.9,80.036
312,11.4,41.7,101.2,99.95,77.55,44.9,79.86399999999999
313,11.44,41.7,100.8,99.91,77.56,44.9,80.002
314,11.48,41.0,100.96,99.88,77.56,44.9,79.968
315,11.51,42.2,100.96,99.84,77.55,44.9,80.002
316,11.55,41.6,100.8,99.8,77.52,44.9,79.86399999999999
317,11.59,42.9,100.64,99.77,77.49,44.9,80.002
318,11.63,42.9,100.24,99.74,77.43,44.9,79.933
319,11.66,43.5,100.16,99.72,77.38,44.9,79.933
320,11.7,43.2,100.0,99.71,77.35,44.9,79.933
321,11.74,44.2,99.68,99.72,77.34,44.9,79.899
322,11.77,42.9,99.92,99.74,77.35,44.9,79.933
323,11.81,44.5,99.76,99.77,77.37,44.9,79.83
324,11.85,43.8,99.68,99.79,77.39,44.9,79.968
325,11.89,44.3,100.08,99.82,77.43,44.9,79.968
326,11.92,43.3,100.32,99.85,77.49,44.9,80.002
327,11.96,44.9,100.32,99.89,77.57,44.9,80.002
328,12.0,43.2,100.56,99.93,77.65,44.9,79.796
329,12.04,42.7,100.8,99.97,77.75,44.9,79.796
330,12.07,43.8,101.2,100.0,77.84,44.9,79.76100000000001
331,12.11,45.0,101.44,100.0,77.92,44.9,79.86399999999999
332,12.15,45.3,101.44,100.0,77.98,44.9,79.86399999999999
333,12.19,45.5,101.6,100.0,78.01,44.9,79.86399999999999
334,12.23,45.3,101.6,100.0,78.03,44.9,79.968
335,12.26,44.0,101.68,99.99,78.04,44.9,79.86399999999999
336,12.3,43.6,101.76,99.98,78.05,44.9,79.83
337,12.34,43.7,101.44,99.98,78.06,44.9,79.933
338,12.38,43.3,101.44,99.98,78.06,44.9,79.796
339,12.41,42.8,101.44,99.98,78.05,44.9,79.86399999999999
340,12.45,42.9,101.2,100.0,78.03,44.9,79.83
341,12.49,42.2,101.44,100.0,77.99,44.9,79.83
342,12.53,43.2,101.28,100.0,77.94,44.9,79.796
343,12.56,45.1,101.52,100.0,77.87,44.9,79.83
344,12.6,45.3,101.52,100.0,77.79,44.9,79.86399999999999
345,12.64,44.7,101.28,100.0,77.7,44.9,79.76100000000001
346,12.68,44.7,101.44,100.0,77.62,44.9,79.899
347,12.72,46.1,101.36,100.0,77.52,44.9,79.899
348,12.75,45.6,101.2,100.0,77.44,44.9,79.796
349,12.79,47.6,101.28,100.0,77.37,44.9,79.76100000000001
350,12.83,47.0,101.28,100.0,77.33,44.9,79.796
351,12.87,47.0,101.36,100.0,77.32,44.9,79.968
352,12.9,47.5,101.44,100.0,77.34,44.9,79.86399999999999
353,12.94,48.4,101.12,100.0,77.37,44.9,79.968
354,12.98,47.2,101.28,100.0,77.4,44.9,79.76100000000001
355,13.01,49.2,101.28,100.0,77.43,44.9,79.555
356,13.05,48.9,101.28,100.0,77.46,44.9,79.899
357,13.09,49.7,101.44,100.0,77.47,44.9,79.968
358,13.13,50.5,100.96,100.0,77.48,44.9,79.86399999999999
359,13.16,50.1,101.12,100.0,77.46,44.9,79.86399999999999
360,13.2,49.4,101.28,100.0,77.42,44.9,79.76100000000001
361,13.24,47.2,101.12,100.0,77.38,44.9,79.86399999999999
362,13.28,44.7,101.12,100.0,77.38,44.9,79.899
363,13.31,43.5,101.04,100.0,77.38,44.9,79.86399999999999
364,13.35,41.9,101.04,100.0,77.39,44.9,79.83
365,13.39,40.7,101.12,100.0,77.4,44.9,79.658
366,13.43,41.3,101.12,100.0,77.39,44.9,79.83
367,13.46,41.8,101.28,100.0,77.37,44.9,79.76100000000001
368,13.5,43.2,101.36,100.0,77.33,44.9,79.83
369,13.54,43.5,101.2,100.0,77.27,44.9,79.796
370,13.58,43.9,101.36,99.89,77.21,44.9,79.86399999999999
371,13.61,43.8,101.28,99.76,77.15,44.9,79.933
372,13.65,42.9,101.04,99.66,77.12,44.9,79.727
373,13.69,43.3,100.56,99.58,77.13,44.9,79.83
374,13.73,44.1,99.84,99.54,77.17,44.9,79.968
375,13.76,42.3,99.52,99.52,77.24,44.9,79.692
376,13.8,41.3,99.36,99.54,77.35,44.9,79.83
377,13.84,42.0,99.04,99.59,77.46,44.9,79.796
378,13.88,42.2,99.2,99.65,77.58,44.9,79.727
379,13.91,43.1,99.44,99.72,77.69,44.9,79.83
380,13.95,44.2,99.52,99.79,77.8,44.9,79.83
381,13.99,45.9,99.84,99.86,77.9,44.9,79.76100000000001
382,14.03,44.3,100.0,99.92,77.98,44.9,79.83
383,14.06,43.5,100.4,99.95,78.05,44.9,79.76100000000001
384,14.1,43.0,100.8,99.94,78.11,44.9,79.76100000000001
385,14.14,42.7,100.96,99.89,78.15,44.9,79.727
386,14.18,42.3,101.12,99.83,78.19,44.9,79.83
387,14.22,44.0,100.88,99.75,78.24,44.9,79.796
388,14.25,44.1,100.32,99.69,78.29,44.9,79.76100000000001
389,14.29,44.5,100.32,99.64,78.34,44.9,79.933
390,14.33,44.4,100.0,99.61,78.38,44.9,79.76100000000001
391,14.37,43.8,99.76,99.6,78.41,44.9,79.727
392,14.4,44.1,99.52,99.62,78.44,44.9,79.86399999999999
393,14.44,44.9,99.2,99.65,78.44,44.9,79.933
394,14.48,45.3,99.36,99.7,78.41,44.9,79.968
395,14.52,47.3,99.36,99.73,78.34,44.9,79.933
396,14.56,46.8,99.52,99.77,78.24,44.9,79.86399999999999
397,14.59,46.7,99.84,99.8,78.14,44.9,79.83
398,14.63,48.4,99.84,99.86,78.07,44.9,79.933
399,14.67,44.0,99.92,99.91,78.02,44.9,79.86399999999999
400,14.71,45.5,100.0,99.97,78.0,44.9,79.83
401,14.74,46.1,100.24,100.0,78.0,44.9,79.86399999999999
402,14.78,46.1,100.72,100.0,78.01,44.9,79.899
403,14.82,47.8,100.64,100.0,78.02,44.9,79.899
404,14.86,47.5,100.56,100.0,78.03,44.9,79.899
405,14.89,50.6,100.8,100.0,78.03,44.9,79.899
406,14.93,50.6,100.88,100.0,78.03,44.9,80.002
407,14.97,48.1,100.96,100.0,78.03,44.9,79.86399999999999
408,15.01,49.9,100.8,100.0,78.01,44.9,79.933
409,15.05,46.7,100.64,100.0,77.97,44.9,79.86399999999999
410,15.08,47.5,100.8,100.0,77.92,44.9,79.968
411,15.12,46.1,100.8,100.0,77.86,44.9,79.968
412,15.16,44.9,100.64,100.0,77.83,44.9,79.899
413,15.2,44.1,100.8,100.0,77.82,44.9,79.76100000000001
414,15.23,44.7,100.64,100.0,77.82,44.9,80.002
415,15.27,44.0,100.8,100.0,77.82,44.9,79.899
416,15.31,45.2,100.88,100.0,77.78,44.9,79.968
417,15.35,46.4,100.64,100.0,77.71,44.9,79.968
418,15.38,47.1,100.8,100.0,77.6,44.9,79.86399999999999
419,15.42,46.3,100.8,100.0,77.49,44.9,80.002
420,15.46,45.4,100.56,100.0,77.41,44.9,80.002
421,15.5,45.0,100.88,99.94,77.37,44.9,80.036
422,15.53,46.0,100.88,99.88,77.36,44.9,79.83
423,15.57,43.1,100.64,99.85,77.38,44.9,79.968
424,15.61,44.8,100.48,99.81,77.42,44.9,80.139
425,15.65,45.9,100.08,99.79,77.47,44.9,80.002
426,15.68,45.9,100.16,99.79,77.52,44.9,80.002
427,15.72,46.1,99.92,99.8,77.57,44.9,79.86399999999999
428,15.76,48.1,99.68,99.83,77.62,44.9,80.002
