step,spool,diameter,speed,motorV,extfrq,target,temp
0,0.0,33.3,79.52,23.77,18.73,55.0,80.002
1,0.01,31.6,79.76,24.77,19.4,55.0,80.002
2,0.03,30.2,76.72,26.8,20.86,55.0,80.002
3,0.05,31.9,65.12,30.01,23.27,55.0,80.002
4,0.06,30.5,55.92,34.25,26.65,55.0,80.071
5,0.08,35.4,50.0,39.23,30.89,55.0,80.002
6,0.1,35.2,46.72,44.66,35.8,55.0,79.933
7,0.12,32.0,46.08,50.23,41.17,55.0,80.002
8,0.14,33.7,47.44,55.61,46.79,55.0,80.071
9,0.17,32.5,49.6,60.47,52.52,55.0,80.002
10,0.2,31.1,53.68,64.59,58.24,55.0,79.899
11,0.23,35.0,57.92,68.22,63.81,55.0,79.899
12,0.26,37.3,61.92,71.33,69.13,55.0,80.139
13,0.3,37.3,65.52,73.8,74.1,55.0,80.002
14,0.33,37.9,68.96,75.56,78.63,55.0,80.002
15,0.37,41.6,72.48,76.65,82.69,55.0,80.036
16,0.41,42.7,75.12,77.2,86.24,55.0,80.071
17,0.45,38.8,76.64,77.35,89.21,55.0,79.899
18,0.49,36.8,78.4,77.23,91.53,55.0,80.036
19,0.53,35.9,79.6,76.93,93.3,55.0,79.968
20,0.58,33.8,79.84,76.44,94.79,55.0,80.036
21,0.62,34.7,79.92,75.58,95.85,55.0,80.139
22,0.67,32.6,80.16,74.19,96.06,55.0,80.105
23,0.71,31.7,79.68,72.24,95.57,55.0,80.105
24,0.76,31.2,78.48,70.07,94.59,55.0,80.071
25,0.8,31.2,77.76,68.1,93.21,55.0,80.139
26,0.84,34.0,76.56,66.36,91.43,55.0,80.036
27,0.89,31.2,74.72,64.8,89.21,55.0,80.071
28,0.93,31.3,73.12,63.44,86.6,55.0,80.036
29,0.97,34.2,71.76,62.29,83.82,55.0,80.277
30,1.01,31.8,70.4,61.54,81.1,55.0,80.002
31,1.05,35.0,68.8,60.99,78.53,55.0,80.002
32,1.09,36.3,67.92,60.57,77.08,55.0,79.968
33,1.12,36.2,67.44,60.96,75.81,55.0,79.933
34,1.16,35.7,66.8,61.85,74.96,55.0,80.105
35,1.2,37.5,65.84,62.75,74.37,55.0,79.968
36,1.23,38.1,66.0,63.45,74.03,55.0,79.933
37,1.27,38.4,66.4,63.82,73.89,55.0,80.002
38,1.31,40.8,66.8,63.81,73.89,55.0,80.105
39,1.34,40.6,66.96,63.49,73.99,55.0,79.899
40,1.38,42.5,67.36,63.0,74.21,55.0,80.105
41,1.41,43.7,67.76,62.42,74.58,55.0,80.071
42,1.45,44.4,67.76,61.74,75.11,55.0,79.933
43,1.49,46.8,67.2,61.06,75.9,55.0,79.933
44,1.52,47.9,66.88,60.84,76.61,55.0,80.105
45,1.56,48.5,66.56,60.96,76.58,55.0,79.933
46,1.6,48.2,66.24,62.66,76.57,55.0,80.139
47,1.64,50.7,65.52,70.44,75.58,55.0,80.036
48,1.67,49.3,65.92,77.27,76.18,55.0,80.002
49,1.71,48.3,67.76,77.44,77.12,55.0,80.071
50,1.75,50.4,71.92,77.74,77.23,55.0,80.036
51,1.78,49.8,76.16,77.96,77.28,55.0,80.036
52,1.82,50.1,78.56,78.36,76.83,55.0,80.071
53,1.86,51.6,79.84,78.96,76.61,55.0,79.968
54,1.9,49.7,80.4,79.55,76.69,55.0,79.968
55,1.93,48.7,80.96,80.05,76.99,55.0,80.036
56,1.97,51.0,81.92,80.32,77.1,55.0,80.105
57,2.01,49.8,82.48,80.35,77.08,55.0,80.105
58,2.04,49.8,82.4,80.69,77.13,55.0,80.105
59,2.08,51.9,83.28,81.45,77.38,55.0,79.968
60,2.12,51.3,83.52,82.32,77.86,55.0,80.071
61,2.16,50.3,83.44,82.98,78.34,55.0,80.036
62,2.19,51.0,84.4,83.46,78.72,55.0,80.002
63,2.23,50.0,85.12,83.81,79.03,55.0,80.036
64,2.27,49.9,85.36,84.0,79.29,55.0,80.139
65,2.31,50.2,86.0,83.99,79.58,55.0,80.002
66,2.35,48.6,86.56,83.92,79.74,55.0,80.036
67,2.39,50.2,86.56,83.67,79.65,55.0,80.036
68,2.42,48.4,86.88,83.3,79.6,55.0,79.933
69,2.46,49.2,87.04,83.44,80.17,55.0,80.002
70,2.5,50.0,86.32,83.46,80.97,55.0,79.968
71,2.54,50.8,86.16,82.96,81.45,55.0,80.071
72,2.58,51.8,86.4,82.04,81.53,55.0,80.277
73,2.62,50.3,86.24,80.98,81.44,55.0,80.036
74,2.66,50.4,85.76,80.01,81.29,55.0,80.071
75,2.7,50.8,85.36,79.19,81.09,55.0,80.002
76,2.73,51.6,84.16,78.47,81.0,55.0,80.071
77,2.77,49.7,82.8,77.9,80.97,55.0,80.036
78,2.81,48.6,82.56,78.04,81.02,55.0,80.071
79,2.85,46.8,82.0,79.36,81.04,55.0,80.071
80,2.89,47.3,81.12,80.39,81.0,55.0,79.968
81,2.93,47.1,81.52,80.85,80.95,55.0,79.968
82,2.97,47.3,82.24,81.04,80.9,55.0,80.071
83,3.01,48.7,82.96,81.08,80.84,55.0,80.036
84,3.05,48.8,84.08,81.02,80.76,55.0,79.968
85,3.08,48.5,84.32,80.89,80.67,55.0,79.86399999999999
86,3.12,47.1,84.0,80.68,80.58,55.0,80.071
87,3.16,48.0,83.2,80.41,80.5,55.0,80.002
88,3.2,46.9,83.28,80.11,80.44,55.0,80.17399999999999
89,3.24,46.4,83.2,79.76,80.44,55.0,79.968
90,3.28,45.7,83.36,79.36,80.51,55.0,79.933
91,3.32,46.5,83.28,78.97,80.65,55.0,79.968
92,3.35,46.2,83.28,78.54,80.9,55.0,80.071
93,3.39,45.4,82.96,78.03,81.19,55.0,79.968
94,3.43,47.0,83.28,77.41,81.43,55.0,79.968
95,3.47,46.7,83.36,76.69,81.45,55.0,79.933
96,3.51,47.1,82.4,76.14,81.35,55.0,79.968
97,3.55,46.8,81.44,76.25,81.52,55.0,80.105
98,3.59,48.0,80.56,76.49,81.74,55.0,79.968
99,3.63,48.3,79.84,76.7,81.89,55.0,79.968
100,3.67,48.8,79.44,76.82,81.93,55.0,79.933
101,3.71,49.7,79.6,76.9,81.89,55.0,80.105
102,3.75,49.8,79.76,76.96,81.82,55.0,79.933
103,3.78,50.0,79.68,77.06,81.79,55.0,80.071
104,3.82,48.9,80.08,77.14,81.76,55.0,79.968
105,3.86,49.6,80.16,77.22,81.73,55.0,79.933
106,3.9,49.3,79.84,77.27,81.71,55.0,80.036
107,3.94,49.5,80.08,77.31,81.7,55.0,80.105
108,3.98,50.2,80.32,77.35,81.69,55.0,80.208
109,4.02,48.5,80.32,77.38,81.7,55.0,80.002
110,4.06,49.0,80.24,77.41,81.71,55.0,80.002
111,4.1,48.9,80.48,77.43,81.71,55.0,80.002
112,4.14,50.1,80.48,77.42,81.69,55.0,80.071
113,4.18,51.7,80.16,77.4,81.66,55.0,79.899
114,4.21,50.3,80.48,77.36,81.63,55.0,79.86399999999999
115,4.25,50.7,80.72,77.28,81.58,55.0,80.002
116,4.29,51.5,80.4,77.23,81.52,55.0,80.036
117,4.33,51.1,80.48,77.16,81.45,55.0,79.933
118,4.37,53.0,80.56,77.1,81.38,55.0,79.899
119,4.41,51.8,80.24,77.1,81.33,55.0,80.002
120,4.45,51.0,80.0,77.12,81.3,55.0,80.105
121,4.49,50.8,80.4,77.18,81.31,55.0,79.933
122,4.53,48.5,80.4,77.23,81.35,55.0,80.036
123,4.57,51.9,80.0,77.28,81.42,55.0,80.002
124,4.6,50.1,80.4,77.3,81.5,55.0,80.002
125,4.64,52.3,80.4,77.29,81.57,55.0,79.899
126,4.68,50.0,79.76,77.25,81.66,55.0,80.105
127,4.72,49.6,80.08,77.18,81.74,55.0,79.968
128,4.76,52.4,80.4,77.12,81.81,55.0,80.036
129,4.8,50.9,80.16,77.07,81.86,55.0,80.002
130,4.84,52.3,80.08,77.04,81.88,55.0,80.071
131,4.88,51.8,80.32,77.01,81.88,55.0,79.968
132,4.92,51.8,80.16,76.98,81.86,55.0,79.968
133,4.96,53.6,79.6,76.94,81.81,55.0,79.968
134,5.0,53.4,80.0,76.9,81.72,55.0,79.86399999999999
135,5.04,53.8,80.16,76.84,81.61,55.0,79.83
136,5.07,55.1,79.84,76.79,81.5,55.0,79.933
137,5.11,54.6,79.92,76.74,81.38,55.0,79.899
138,5.15,55.4,79.92,76.69,81.28,55.0,80.071
139,5.19,55.3,79.84,76.64,81.19,55.0,79.933
140,5.23,54.2,79.68,76.61,81.13,55.0,80.002
141,5.27,54.4,79.84,76.61,81.12,55.0,79.83
142,5.31,54.5,79.84,76.62,81.15,55.0,80.002
143,5.35,55.2,79.44,76.64,81.19,55.0,79.83
144,5.39,55.2,79.68,76.62,81.23,55.0,79.899
145,5.42,55.4,79.6,76.56,81.27,55.0,79.899
146,5.46,53.0,79.44,76.47,81.31,55.0,79.933
147,5.5,51.9,79.52,76.39,81.35,55.0,80.071
148,5.54,52.6,79.76,76.32,81.39,55.0,79.968
149,5.58,52.0,79.76,76.25,81.43,55.0,79.796
150,5.62,52.7,79.28,76.18,81.46,55.0,79.899
151,5.66,53.8,79.28,76.1,81.45,55.0,79.899
152,5.7,52.2,79.36,76.03,81.44,55.0,79.86399999999999
153,5.74,51.6,79.04,75.96,81.42,55.0,79.933
154,5.78,51.9,79.2,75.91,81.4,55.0,79.83
155,5.81,51.7,79.36,75.88,81.4,55.0,80.002
156,5.85,51.4,79.04,75.87,81.39,55.0,79.968
157,5.89,51.7,78.72,75.89,81.39,55.0,79.86399999999999
158,5.93,51.6,78.88,75.91,81.39,55.0,79.83
159,5.97,50.4,78.96,75.93,81.38,55.0,79.83
160,6.01,49.7,78.8,75.95,81.37,55.0,80.071
161,6.05,49.4,79.04,75.98,81.36,55.0,79.968
162,6.09,51.2,79.12,76.04,81.37,55.0,79.933
163,6.13,50.7,78.64,76.08,81.38,55.0,79.86399999999999
164,6.17,51.5,78.56,76.1,81.38,55.0,79.899
165,6.2,51.6,79.12,76.12,81.37,55.0,79.899
166,6.24,51.4,79.12,76.1,81.34,55.0,79.968
167,6.28,50.8,78.96,76.08,81.32,55.0,79.727
168,6.32,52.3,79.36,76.05,81.29,55.0,79.933
169,6.36,50.6,79.36,76.0,81.27,55.0,79.968
170,6.4,50.3,78.8,75.94,81.27,55.0,79.933
171,6.44,51.2,79.04,75.83,81.25,55.0,79.86399999999999
172,6.48,52.2,79.04,75.76,81.24,55.0,79.933
173,6.52,52.1,78.88,75.65,81.21,55.0,80.036
174,6.56,52.6,78.72,75.56,81.19,55.0,79.933
175,6.59,53.3,78.96,75.45,81.19,55.0,79.899
176,6.63,54.0,78.72,75.33,81.18,55.0,80.002
177,6.67,54.0,78.08,75.26,81.18,55.0,80.139
178,6.71,53.9,78.4,75.19,81.19,55.0,79.899
179,6.75,53.7,78.56,75.18,81.22,55.0,80.036
180,6.79,55.4,78.24,75.21,81.25,55.0,80.071
181,6.83,55.2,78.24,75.26,81.28,55.0,80.071
182,6.87,50.7,78.4,75.36,81.33,55.0,79.968
183,6.91,53.2,78.16,75.44,81.37,55.0,79.968
184,6.94,50.9,77.84,75.45,81.39,55.0,80.002
185,6.98,51.5,78.4,75.4,81.41,55.0,80.036
186,7.02,50.4,78.64,75.31,81.43,55.0,79.968
187,7.06,50.7,78.32,75.17,81.42,55.0,79.933
188,7.1,50.3,78.48,75.04,81.41,55.0,79.933
189,7.14,51.4,78.48,74.95,81.4,55.0,80.036
190,7.18,51.3,78.16,74.85,81.37,55.0,80.002
191,7.22,52.1,77.92,74.76,81.32,55.0,80.071
192,7.26,52.8,78.32,74.71,81.27,55.0,79.968
193,7.3,52.8,78.16,74.67,81.21,55.0,80.071
194,7.33,51.8,77.76,74.69,81.15,55.0,80.105
195,7.37,51.5,77.76,74.74,81.12,55.0,79.968
196,7.41,51.2,77.76,74.79,81.1,55.0,80.002
197,7.45,50.8,77.76,74.85,81.09,55.0,80.002
198,7.49,50.3,77.68,74.89,81.07,55.0,79.899
199,7.53,50.3,78.0,74.94,81.07,55.0,80.105
200,7.57,50.4,78.08,74.98,81.07,55.0,80.139
201,7.61,49.6,77.76,74.99,81.07,55.0,80.036
202,7.65,51.1,78.0,74.98,81.08,55.0,80.036
203,7.68,49.1,78.16,74.96,81.1,55.0,80.002
204,7.72,47.6,78.0,74.9,81.11,55.0,80.002
205,7.76,47.5,78.08,74.83,81.12,55.0,79.968
206,7.8,48.8,78.32,74.75,81.13,55.0,79.968
207,7.84,48.4,78.16,74.66,81.13,55.0,80.036
208,7.88,49.2,77.52,74.55,81.13,55.0,80.036
209,7.92,49.0,77.76,74.45,81.12,55.0,80.036
210,7.96,50.3,77.92,74.34,81.1,55.0,80.036
211,8.0,53.4,77.76,74.26,81.08,55.0,79.933
212,8.03,55.0,77.68,74.2,81.05,55.0,80.002
213,8.07,54.5,77.84,74.16,81.03,55.0,79.933
214,8.11,54.9,77.68,74.13,81.01,55.0,80.036
215,8.15,54.1,77.04,74.1,81.01,55.0,80.036
216,8.19,54.2,77.28,74.05,81.0,55.0,79.968
217,8.23,54.2,77.28,74.0,81.01,55.0,80.002
218,8.27,54.5,77.04,73.92,81.03,55.0,80.036
219,8.31,55.2,77.04,73.86,81.06,55.0,80.002
220,8.35,55.7,77.28,73.81,81.08,55.0,79.899
221,8.38,55.6,77.12,73.78,81.12,55.0,79.968
222,8.42,55.6,76.64,73.79,81.2,55.0,80.002
223,8.46,54.0,77.04,73.81,81.3,55.0,80.071
224,8.5,53.0,77.2,73.78,81.39,55.0,80.139
225,8.54,53.8,76.96,73.74,81.47,55.0,79.899
226,8.58,53.4,77.12,73.7,81.54,55.0,80.002
227,8.62,53.0,77.28,73.65,81.58,55.0,80.036
228,8.66,51.8,76.8,73.58,81.58,55.0,80.071
229,8.7,50.5,76.24,73.54,81.57,55.0,80.002
230,8.74,47.4,76.72,73.56,81.59,55.0,79.86399999999999
231,8.77,49.4,76.88,73.54,81.57,55.0,79.933
232,8.81,51.7,76.56,73.57,81.55,55.0,79.899
233,8.85,52.2,76.64,73.59,81.51,55.0,79.933
234,8.89,52.6,76.8,73.61,81.44,55.0,80.002
235,8.93,53.3,76.64,73.62,81.35,55.0,80.036
236,8.97,53.7,76.32,73.68,81.26,55.0,80.002
237,9.01,51.5,76.72,73.74,81.17,55.0,79.86399999999999
238,9.05,52.2,76.8,73.84,81.1,55.0,79.968
239,9.09,52.6,76.56,73.94,81.04,55.0,79.933
240,9.13,51.9,76.64,74.04,80.99,55.0,79.968
241,9.16,51.7,76.88,74.1,80.93,55.0,80.071
242,9.2,52.3,76.88,74.12,80.88,55.0,79.933
243,9.24,53.0,76.8,74.1,80.84,55.0,79.83
244,9.28,53.9,77.12,74.04,80.84,55.0,79.933
245,9.32,55.0,77.12,73.96,80.87,55.0,80.002
246,9.36,56.3,76.8,73.86,80.93,55.0,80.002
247,9.4,55.5,76.88,73.74,81.0,55.0,79.899
248,9.44,55.3,76.96,73.6,81.08,55.0,79.796
249,9.47,54.2,76.96,73.44,81.16,55.0,80.002
250,9.51,53.6,76.64,73.26,81.23,55.0,79.933
251,9.55,53.5,76.88,73.08,81.3,55.0,79.933
252,9.59,52.8,76.8,72.83,81.35,55.0,79.899
253,9.63,53.4,76.32,72.55,81.4,55.0,79.968
254,9.67,53.6,76.08,72.28,81.44,55.0,79.86399999999999
255,9.71,53.2,75.92,72.09,81.49,55.0,79.899
256,9.75,52.2,75.84,71.97,81.55,55.0,80.105
257,9.79,53.5,75.28,72.02,81.63,55.0,79.968
258,9.83,52.9,75.44,72.25,81.72,55.0,79.899
259,9.86,53.7,75.44,72.5,81.76,55.0,79.968
260,9.9,52.4,75.2,72.55,81.72,55.0,79.933
261,9.94,52.6,75.2,72.48,81.65,55.0,80.036
262,9.98,54.2,75.68,72.42,81.56,55.0,79.933
263,10.02,53.9,75.84,72.37,81.47,55.0,79.899
264,10.06,55.1,75.84,72.41,81.41,55.0,79.899
265,10.1,55.2,76.16,72.44,81.34,55.0,80.139
266,10.14,55.7,76.32,72.45,81.28,55.0,79.83
267,10.18,55.2,75.84,72.46,81.22,55.0,79.933
268,10.22,55.5,75.52,72.43,81.18,55.0,79.83
269,10.25,55.4,75.92,72.37,81.13,55.0,79.86399999999999
270,10.29,55.8,75.92,72.33,81.09,55.0,79.83
271,10.33,55.7,75.6,72.31,81.09,55.0,79.899
272,10.37,55.9,75.92,72.28,81.09,55.0,80.002
273,10.41,56.8,76.0,72.23,81.08,55.0,79.933
274,10.45,56.6,75.76,72.19,81.09,55.0,80.002
275,10.49,56.7,75.44,72.13,81.11,55.0,79.86399999999999
276,10.53,56.1,75.84,72.06,81.11,55.0,79.83
277,10.57,54.9,75.92,71.97,81.13,55.0,79.899
278,10.6,54.4,75.52,71.88,81.19,55.0,80.002
279,10.64,53.7,75.68,71.74,81.21,55.0,79.83
280,10.68,53.6,75.6,71.64,81.22,55.0,79.899
281,10.72,51.2,75.36,71.58,81.24,55.0,79.899
282,10.76,51.0,74.96,71.52,81.26,55.0,79.76100000000001
283,10.8,51.2,75.36,71.45,81.26,55.0,80.002
284,10.84,51.5,75.44,71.39,81.26,55.0,79.899
285,10.88,53.9,74.88,71.35,81.26,55.0,79.83
286,10.92,55.8,74.8,71.27,81.22,55.0,79.933
287,10.96,56.4,75.04,71.22,81.16,55.0,79.968
288,10.99,55.5,74.8,71.21,81.11,55.0,80.071
289,11.03,52.5,74.4,71.23,81.08,55.0,79.86399999999999
290,11.07,51.7,74.8,71.25,81.06,55.0,79.83
291,11.11,51.8,74.96,71.25,81.04,55.0,79.968
292,11.15,52.7,74.64,71.19,81.01,55.0,79.86399999999999
293,11.19,52.5,74.64,71.07,80.96,55.0,79.76100000000001
294,11.23,52.6,74.8,70.92,80.91,55.0,79.933
295,11.27,54.0,74.72,70.8,80.92,55.0,80.036
296,11.31,53.7,74.4,70.71,80.98,55.0,79.933
297,11.34,53.1,74.64,70.64,81.07,55.0,79.899
298,11.38,54.3,74.64,70.57,81.18,55.0,79.796
299,11.42,53.1,74.48,70.49,81.28,55.0,79.899
300,11.46,52.3,74.08,70.4,81.37,55.0,79.76100000000001
301,11.5,50.9,74.08,70.32,81.43,55.0,79.968
302,11.54,51.2,74.08,70.25,81.49,55.0,80.002
303,11.58,52.8,73.84,70.21,81.56,55.0,79.86399999999999
304,11.62,53.0,73.92,70.19,81.65,55.0,79.83
305,11.66,52.5,74.08,70.18,81.74,55.0,79.83
306,11.69,51.3,74.0,70.2,81.85,55.0,79.83
307,11.73,51.6,73.52,70.25,81.96,55.0,79.933
308,11.77,50.6,73.76,70.35,82.11,55.0,79.86399999999999
309,11.81,51.6,73.84,70.6,82.3,55.0,79.86399999999999
310,11.85,52.8,73.68,70.86,82.47,55.0,79.899
311,11.89,52.4,73.6,71.01,82.58,55.0,79.899
312,11.93,53.1,74.24,71.09,82.64,55.0,79.796
313,11.97,53.7,74.4,71.09,82.67,55.0,79.76100000000001
314,12.01,53.5,74.0,71.05,82.68,55.0,79.933
315,12.05,54.3,74.32,70.96,82.69,55.0,79.796
316,12.09,55.1,74.56,70.88,82.71,55.0,79.86399999999999
317,12.13,54.1,74.48,70.79,82.73,55.0,79.933
318,12.17,56.3,74.24,70.66,82.74,55.0,79.968
319,12.21,56.4,74.48,70.51,82.76,55.0,79.933
320,12.25,56.6,74.56,70.37,82.8,55.0,79.83
321,12.29,58.5,74.08,70.22,82.84,55.0,79.83
322,12.33,58.8,73.68,70.08,82.89,55.0,79.899
323,12.37,59.9,73.92,69.97,82.95,55.0,79.86399999999999
324,12.41,58.3,73.92,69.9,83.04,55.0,79.899
325,12.44,55.6,73.52,69.83,83.12,55.0,79.83
326,12.48,53.8,73.6,69.76,83.19,55.0,80.002
327,12.52,54.6,73.68,69.69,83.27,55.0,79.86399999999999
328,12.56,56.1,73.44,69.62,83.34,55.0,80.036
329,12.6,55.9,72.88,69.57,83.4,55.0,79.899
330,12.64,55.3,73.28,69.52,83.45,55.0,79.899
331,12.68,53.4,73.44,69.49,83.48,55.0,79.796
332,12.72,52.4,72.96,69.45,83.47,55.0,79.933
333,12.76,52.2,72.8,69.4,83.4,55.0,79.83
334,12.8,52.3,73.04,69.36,83.31,55.0,79.899
335,12.84,52.5,72.8,69.35,83.22,55.0,79.727
336,12.88,53.7,72.16,69.34,83.11,55.0,80.002
337,12.92,54.7,72.56,69.35,83.02,55.0,80.036
338,12.96,54.5,72.88,69.33,82.91,55.0,79.86399999999999
339,13.0,56.4,72.8,69.31,82.78,55.0,80.002
340,13.04,57.0,72.48,69.27,82.63,55.0,79.86399999999999
341,13.08,58.2,72.88,69.21,82.5,55.0,79.968
342,13.12,56.3,72.8,69.14,82.39,55.0,79.968
343,13.16,55.5,72.56,69.05,82.29,55.0,79.968
344,13.2,55.4,72.64,68.96,82.26,55.0,79.796
345,13.24,56.8,72.88,68.87,82.28,55.0,79.727
346,13.28,56.6,72.88,68.77,82.33,55.0,79.86399999999999
347,13.32,56.2,72.4,68.69,82.45,55.0,79.933
348,13.36,55.2,72.64,68.59,82.59,55.0,80.105
349,13.39,53.5,72.64,68.48,82.77,55.0,79.968
350,13.43,50.5,72.48,68.35,82.92,55.0,79.933
351,13.47,49.7,72.16,68.24,83.02,55.0,79.899
352,13.51,50.7,72.48,68.17,83.09,55.0,79.968
353,13.55,50.1,72.32,68.13,83.11,55.0,79.86399999999999
354,13.59,51.3,72.0,68.1,83.06,55.0,79.968
355,13.63,52.7,71.68,68.09,82.93,55.0,79.899
356,13.67,51.7,71.84,68.12,82.78,55.0,80.036
357,13.71,51.3,71.84,68.17,82.56,55.0,79.933
358,13.75,50.8,71.6,68.26,82.29,55.0,79.83
359,13.79,52.1,71.76,68.39,81.99,55.0,79.968
360,13.83,52.9,72.0,68.54,81.65,55.0,79.899
361,13.87,54.3,72.08,68.71,81.25,55.0,80.071
362,13.91,54.3,71.6,68.89,80.84,55.0,80.002
363,13.95,54.4,71.92,69.06,80.44,55.0,79.933
364,13.99,54.8,72.08,69.19,80.06,55.0,79.692
365,14.02,54.5,72.32,69.26,79.72,55.0,80.002
366,14.06,56.4,72.16,69.27,79.32,55.0,79.968
367,14.1,57.1,72.56,69.23,79.01,55.0,80.002
368,14.14,59.4,72.8,69.15,78.71,55.0,79.899
369,14.18,59.3,72.64,69.05,78.41,55.0,80.105
370,14.21,60.2,72.4,68.95,78.24,55.0,80.071
371,14.25,59.8,72.64,68.88,78.13,55.0,79.933
372,14.29,59.0,72.72,68.85,78.13,55.0,80.036
373,14.33,57.7,72.32,68.79,78.15,55.0,79.899
374,14.36,57.1,72.4,68.69,78.14,55.0,79.933
375,14.4,56.0,72.56,68.57,78.08,55.0,80.036
376,14.44,55.0,72.4,68.49,78.0,55.0,80.002
377,14.48,53.4,71.76,68.46,77.93,55.0,79.86399999999999
378,14.52,53.6,72.0,68.47,77.83,55.0,80.139
379,14.55,55.1,72.24,68.49,77.68,55.0,79.968
380,14.59,55.6,72.16,68.5,77.44,55.0,80.17399999999999
381,14.63,57.6,72.0,68.51,77.17,55.0,80.036
382,14.67,56.2,72.4,68.49,76.88,55.0,80.002
383,14.7,54.4,72.4,68.47,76.61,55.0,80.002
384,14.74,53.7,72.0,68.47,76.35,55.0,80.17399999999999
385,14.78,52.9,71.92,68.48,76.15,55.0,80.002
386,14.81,53.9,72.32,68.46,76.01,55.0,79.968
387,14.85,54.8,72.4,68.4,75.88,55.0,79.933
388,14.89,54.2,71.92,68.35,75.81,55.0,80.139
389,14.92,56.8,72.08,68.3,75.75,55.0,80.036
390,14.96,55.3,72.0,68.3,75.73,55.0,79.86399999999999
391,15.0,55.5,71.76,68.26,75.7,55.0,79.968
392,15.04,56.6,71.2,68.24,75.7,55.0,80.002
393,15.07,54.5,71.6,68.29,75.76,55.0,80.036
394,15.11,54.7,71.76,68.44,75.9,55.0,80.071
395,15.15,56.7,71.68,68.65,76.12,55.0,79.899
396,15.18,56.3,71.44,68.88,76.41,55.0,80.036
397,15.22,57.4,71.92,69.11,76.72,55.0,80.036
398,15.26,56.6,71.92,69.3,76.97,55.0,80.17399999999999
399,15.29,55.4,71.68,69.51,77.29,55.0,80.036
400,15.33,52.5,72.16,69.73,77.61,50.0,79.968
401,15.37,51.4,72.72,69.95,77.96,50.0,80.071
402,15.41,51.5,72.8,70.16,78.31,50.0,80.105
403,15.44,51.1,72.64,70.38,78.7,50.0,79.933
404,15.48,51.7,73.12,70.6,79.14,50.0,80.139
405,15.52,51.2,73.36,70.8,79.5,50.0,80.105
406,15.56,51.2,73.44,71.0,79.71,50.0,79.968
407,15.6,50.2,73.6,71.27,79.66,50.0,80.002
408,15.64,50.9,74.08,71.84,79.16,50.0,80.036
409,15.67,50.7,74.16,72.24,78.88,50.0,80.036
410,15.71,51.0,74.16,72.64,78.61,50.0,80.002
411,15.75,49.8,74.56,73.1,78.26,50.0,80.105
412,15.79,49.7,74.96,73.61,77.87,50.0,80.071
413,15.83,51.0,75.44,74.08,77.54,50.0,79.933
414,15.86,51.4,75.52,74.59,77.2,50.0,80.002
415,15.9,51.9,76.32,74.98,77.05,50.0,79.933
416,15.94,51.6,76.88,75.35,76.95,50.0,79.83
417,15.98,51.5,77.12,75.59,77.01,50.0,80.071
418,16.01,51.0,77.52,75.88,77.17,50.0,79.968
419,16.05,50.7,78.0,75.44,77.52,50.0,79.968
420,16.09,50.8,78.24,74.97,77.93,50.0,80.036
421,16.12,51.1,78.08,74.45,78.4,50.0,80.036
422,16.16,51.4,78.48,73.92,78.93,50.0,80.105
423,16.2,51.4,78.32,73.36,79.6,50.0,79.86399999999999
424,16.24,51.7,77.52,72.86,80.31,50.0,80.105
425,16.28,51.3,76.96,72.44,81.05,50.0,79.968
426,16.32,51.5,76.72,72.16,81.63,50.0,79.86399999999999
427,16.36,51.8,76.24,71.93,82.12,50.0,79.968
428,16.39,51.2,75.6,71.76,82.57,50.0,79.968
429,16.43,50.0,75.6,71.76,82.81,50.0,79.968
430,16.47,50.7,75.36,71.82,83.06,50.0,80.002
431,16.51,47.8,74.88,71.95,83.17,50.0,79.933
432,16.55,49.9,74.56,72.2,83.24,50.0,79.933
433,16.59,49.8,74.96,72.6,83.32,50.0,80.071
434,16.63,50.1,74.96,73.04,83.35,50.0,80.002
435,16.67,50.2,74.88,73.43,83.31,50.0,79.86399999999999
436,16.71,48.2,75.6,73.81,83.24,50.0,80.036
437,16.75,49.3,76.16,74.22,83.16,50.0,80.036
438,16.79,49.3,76.16,74.52,83.11,50.0,79.899
439,16.83,49.9,76.32,74.71,83.01,50.0,80.002
440,16.87,50.8,77.04,74.92,82.92,50.0,80.002
441,16.91,51.1,77.28,75.19,82.86,50.0,79.968
442,16.95,51.2,77.12,75.56,82.83,50.0,79.968
443,16.99,51.2,77.76,75.95,82.81,50.0,79.933
444,17.03,51.0,78.0,76.34,82.85,50.0,80.139
445,17.07,50.8,77.92,76.75,82.91,50.0,80.036
446,17.11,51.5,78.24,77.14,82.99,50.0,80.071
447,17.15,52.6,79.04,77.51,83.06,50.0,79.968
