step,spool,diameter,speed,motorV,extfrq,target,temp
0,0.0,28.7,79.44,100.0,72.0,44.9,80.036
1,0.04,30.8,79.12,100.0,72.0,44.9,79.899
2,0.07,32.6,88.72,100.0,72.0,44.9,79.968
3,0.11,32.1,100.08,100.0,72.0,44.9,79.968
4,0.14,33.4,100.48,100.0,72.0,44.9,80.002
5,0.18,32.4,100.64,100.0,72.0,44.9,79.899
6,0.21,30.7,100.64,100.0,72.0,44.9,80.002
7,0.25,30.8,100.48,100.0,72.0,44.9,79.899
8,0.28,28.3,100.64,100.0,72.0,44.9,80.036
9,0.32,29.9,100.48,100.0,72.0,44.9,79.933
10,0.35,28.2,100.64,100.0,72.0,44.9,79.899
11,0.39,28.4,100.64,100.0,72.0,44.9,79.899
12,0.42,28.9,100.48,100.0,72.0,44.9,80.002
13,0.46,31.1,100.64,100.0,72.0,44.9,79.933
14,0.5,29.7,100.48,100.0,72.0,44.9,79.968
15,0.53,29.4,100.32,100.0,72.0,44.9,79.933
16,0.57,31.0,100.56,100.0,72.0,44.9,79.86399999999999
17,0.6,29.6,100.4,100.0,72.0,44.9,80.002
18,0.64,30.2,100.48,100.0,72.0,44.9,79.933
19,0.67,29.1,100.56,100.0,72.0,44.9,79.933
20,0.71,29.5,100.4,100.0,72.0,44.9,80.036
21,0.74,29.4,100.64,100.0,72.0,44.9,79.933
22,0.78,29.6,100.56,100.0,72.0,44.9,80.139
23,0.81,30.0,100.48,100.0,72.0,44.9,79.968
24,0.85,30.4,100.64,100.0,72.0,44.9,79.86399999999999
25,0.88,28.6,100.56,100.0,72.0,44.9,79.968
26,0.92,28.9,100.64,100.0,72.0,44.9,80.002
27,0.96,29.5,100.64,100.0,72.0,44.9,80.139
28,0.99,28.3,100.32,100.0,72.0,44.9,79.899
29,1.03,28.3,100.48,100.0,72.0,44.9,79.86399999999999
30,1.06,28.3,100.48,100.0,72.0,44.9,79.933
31,1.1,28.1,100.32,100.0,72.0,44.9,79.899
32,1.13,31.1,100.64,100.0,72.0,44.9,79.933
33,1.17,28.5,100.4,100.0,72.0,44.9,80.071
34,1.2,30.2,100.32,100.0,72.0,44.9,80.002
35,1.24,33.7,100.4,100.0,72.0,44.9,79.968
36,1.27,35.0,100.24,100.0,72.0,44.9,80.071
37,1.31,34.9,100.64,100.0,72.0,44.9,79.968
38,1.34,36.8,100.56,100.0,72.0,44.9,80.036
39,1.38,35.8,100.32,100.0,72.0,44.9,80.002
40,1.42,36.8,100.48,100.0,72.0,44.9,79.899
41,1.45,38.2,100.4,100.0,72.0,44.9,80.071
42,1.49,39.8,100.64,100.0,72.0,44.9,80.071
43,1.52,40.4,100.64,100.0,72.0,44.9,79.86399999999999
44,1.56,41.7,100.48,100.0,72.0,44.9,80.002
45,1.59,42.7,100.64,100.0,72.0,44.9,79.968
46,1.63,44.8,100.64,100.0,72.0,44.9,79.899
47,1.66,45.4,100.56,100.0,72.0,44.9,79.727
48,1.7,46.6,100.56,100.0,72.0,44.9,80.002
49,1.73,47.3,100.4,100.0,72.0,44.9,79.76100000000001
50,1.77,48.4,100.48,100.0,72.0,44.9,79.83
51,1.8,47.1,100.56,100.0,72.0,44.9,79.968
52,1.84,46.4,100.48,100.0,72.0,44.9,80.002
53,1.88,46.4,100.64,100.0,72.0,44.9,79.86399999999999
54,1.91,43.1,100.56,100.0,72.0,44.9,79.899
55,1.95,44.5,100.32,100.0,72.0,44.9,80.002
56,1.98,46.5,100.48,100.0,72.0,44.9,79.899
57,2.02,47.7,100.56,100.0,72.0,44.9,79.899
58,2.05,45.4,100.4,100.0,72.0,44.9,79.86399999999999
59,2.09,44.2,100.4,100.0,72.0,44.9,79.933
60,2.12,41.1,100.32,100.0,72.0,44.9,79.899
61,2.16,40.3,100.4,100.0,72.0,44.9,79.86399999999999
62,2.19,41.5,100.48,100.0,72.0,44.9,79.86399999999999
63,2.23,43.6,100.32,100.0,72.0,44.9,79.83
64,2.26,44.9,100.48,100.0,72.0,44.9,80.036
65,2.3,45.9,100.4,100.0,72.0,44.9,79.83
66,2.34,47.6,100.48,100.0,72.0,44.9,79.86399999999999
67,2.37,49.8,100.56,100.0,72.0,44.9,79.86399999999999
68,2.41,47.7,100.4,100.0,72.0,44.9,79.933
69,2.44,45.8,100.48,100.0,72.0,44.9,79.968
70,2.48,44.8,100.48,100.0,72.0,44.9,79.86399999999999
71,2.51,45.1,100.32,100.0,72.0,44.9,79.86399999999999
72,2.55,46.6,100.48,100.0,72.0,44.9,79.86399999999999
73,2.58,47.5,100.4,100.0,72.0,44.9,79.899
74,2.62,46.4,100.32,100.0,72.0,44.9,79.899
75,2.65,45.4,100.56,100.0,72.0,44.9,79.86399999999999
76,2.69,44.0,100.48,100.0,72.0,44.9,79.899
77,2.72,43.4,100.72,100.0,72.0,44.9,79.933
78,2.76,42.1,100.64,100.0,72.0,44.9,79.86399999999999
79,2.8,41.5,100.48,100.0,72.0,44.9,80.071
80,2.83,43.0,100.72,100.0,72.0,44.9,79.86399999999999
81,2.87,44.6,100.64,100.0,72.0,44.9,79.899
82,2.9,46.5,100.72,100.0,72.0,44.9,79.968
83,2.94,44.5,100.72,100.0,72.0,44.9,79.968
84,2.97,45.1,100.56,100.0,72.0,44.9,79.727
85,3.01,45.9,100.56,100.0,72.0,44.9,79.83
86,3.04,44.2,100.64,100.0,72.0,44.9,79.83
87,3.08,44.4,100.48,100.0,72.0,44.9,79.83
88,3.11,44.3,100.64,100.0,72.0,44.9,79.796
89,3.15,43.6,100.56,100.0,72.0,44.9,79.899
90,3.18,43.4,100.48,100.0,72.0,44.9,79.796
91,3.22,42.6,100.64,100.0,72.0,44.9,79.86399999999999
92,3.26,43.1,100.56,100.0,72.0,44.9,79.796
93,3.29,44.4,100.64,100.0,72.0,44.9,79.83
94,3.33,45.2,100.64,100.0,72.0,44.9,79.899
95,3.36,44.5,100.48,100.0,72.0,44.9,80.036
96,3.4,43.5,100.64,100.0,72.0,44.9,79.899
97,3.43,42.5,100.64,100.0,72.0,44.9,79.83
98,3.47,42.7,100.56,100.0,72.0,44.9,79.796
99,3.5,43.2,100.64,100.0,72.0,44.9,80.036
100,3.54,42.9,100.48,100.0,72.0,44.9,80.036
101,3.57,43.0,100.64,100.0,72.0,44.9,79.83
102,3.61,43.4,100.72,100.0,72.0,44.9,79.899
103,3.64,43.0,100.64,100.0,72.0,44.9,79.86399999999999
104,3.68,42.8,100.72,100.0,72.0,44.9,79.86399999999999
105,3.72,44.3,100.72,100.0,72.0,44.9,79.933
106,3.75,44.2,100.64,100.0,72.0,44.9,79.968
107,3.79,46.1,100.72,100.0,72.0,44.9,79.83
108,3.82,44.9,100.48,100.0,72.0,44.9,79.968
109,3.86,44.2,100.64,100.0,72.0,44.9,79.968
110,3.89,42.8,100.72,100.0,72.0,44.9,79.899
111,3.93,41.4,100.48,100.0,72.0,44.9,79.86399999999999
112,3.96,41.5,100.64,100.0,72.0,44.9,79.86399999999999
113,4.0,42.3,100.56,100.0,72.0,44.9,79.899
114,4.03,42.1,100.48,100.0,72.0,44.9,80.071
115,4.07,42.4,100.56,100.0,72.0,44.9,80.002
116,4.1,42.8,100.4,100.0,72.0,44.9,79.933
117,4.14,43.5,100.64,100.0,72.0,44.9,79.933
118,4.18,44.5,100.64,100.0,72.0,44.9,79.968
119,4.21,45.8,100.4,100.0,72.0,44.9,79.83
120,4.25,46.9,100.56,100.0,72.0,44.9,79.86399999999999
121,4.28,48.1,100.48,100.0,72.0,44.9,79.933
122,4.32,45.7,100.48,100.0,72.0,44.9,79.899
123,4.35,44.6,100.64,100.0,72.0,44.9,79.933
124,4.39,43.3,100.48,100.0,72.0,44.9,80.002
125,4.42,42.2,100.64,100.0,72.0,44.9,79.968
126,4.46,41.8,100.56,100.0,72.0,44.9,80.002
127,4.49,41.5,100.56,100.0,72.0,44.9,80.071
128,4.53,41.6,100.64,100.0,72.0,44.9,79.899
129,4.56,41.8,100.48,100.0,72.0,44.9,79.968
130,4.6,43.9,100.32,100.0,72.0,44.9,80.036
131,4.64,44.4,100.56,100.0,72.0,44.9,80.036
132,4.67,45.1,100.56,100.0,72.0,44.9,80.002
133,4.71,45.5,100.64,100.0,72.0,44.9,79.968
134,4.74,46.2,100.64,100.0,72.0,44.9,80.036
135,4.78,46.6,100.4,100.0,72.0,44.9,80.139
136,4.81,47.2,100.56,100.0,72.0,44.9,79.968
137,4.85,46.7,100.64,100.0,72.0,44.9,79.968
138,4.88,44.7,100.56,100.0,72.0,44.9,80.036
139,4.92,43.6,100.56,100.0,72.0,44.9,80.036
140,4.95,45.0,100.48,100.0,72.0,44.9,79.968
141,4.99,46.0,100.64,100.0,72.0,44.9,80.002
142,5.02,46.2,100.64,100.0,72.0,44.9,79.968
143,5.06,46.3,100.4,100.0,72.0,44.9,79.933
144,5.1,47.1,100.4,100.0,72.0,44.9,80.036
145,5.13,47.8,100.4,100.0,72.0,44.9,79.968
146,5.17,46.1,100.4,100.0,72.0,44.9,79.899
147,5.2,46.8,100.48,100.0,72.0,44.9,79.86399999999999
148,5.24,45.0,100.32,100.0,72.0,44.9,80.139
149,5.27,45.8,100.4,100.0,72.0,44.9,80.105
150,5.31,44.3,100.56,100.0,72.0,44.9,80.002
151,5.34,45.4,100.48,100.0,72.0,44.9,79.933
152,5.38,45.1,100.56,100.0,72.0,44.9,79.727
153,5.41,45.3,100.48,100.0,72.0,44.9,80.208
154,5.45,42.9,100.48,100.0,72.0,44.9,80.002
155,5.48,42.1,100.64,100.0,72.0,44.9,80.002
156,5.52,42.6,100.48,100.0,72.0,44.9,79.933
157,5.56,42.5,100.56,100.0,72.0,44.9,80.002
158,5.59,42.5,100.56,100.0,72.0,44.9,79.968
159,5.63,44.1,100.48,100.0,72.0,44.9,80.105
160,5.66,46.9,100.64,100.0,72.0,44.9,80.002
161,5.7,46.4,100.64,100.0,72.0,44.9,79.933
162,5.73,48.3,100.64,100.0,72.0,44.9,79.933
163,5.77,47.4,100.8,100.0,72.0,44.9,80.002
164,5.8,47.5,100.64,100.0,72.0,44.9,80.036
165,5.84,46.8,100.72,100.0,72.0,44.9,79.933
166,5.87,47.0,100.8,100.0,72.0,44.9,80.071
167,5.91,46.0,100.88,100.0,72.0,44.9,80.036
168,5.94,45.3,100.96,100.0,72.0,44.9,79.968
169,5.98,44.9,100.72,100.0,72.0,44.9,79.968
170,6.02,44.1,100.64,100.0,72.0,44.9,80.002
171,6.05,45.1,100.8,100.0,72.0,44.9,80.139
172,6.09,45.8,100.8,100.0,72.0,44.9,79.933
173,6.12,44.9,100.88,100.0,72.0,44.9,80.036
174,6.16,45.1,100.8,100.0,72.0,44.9,79.968
175,6.19,46.4,100.64,100.0,72.0,44.9,80.105
176,6.23,45.3,100.96,100.0,72.0,44.9,80.071
177,6.26,44.5,100.96,100.0,72.0,44.9,80.036
178,6.3,44.1,100.8,100.0,72.0,44.9,80.036
179,6.33,45.7,100.88,100.0,72.0,44.9,80.105
180,6.37,45.2,100.72,100.0,72.0,44.9,80.036
181,6.4,45.0,100.8,100.0,72.0,44.9,79.968
182,6.44,44.7,100.96,100.0,72.0,44.9,79.899
183,6.48,43.8,100.72,100.0,72.0,44.9,80.105
184,6.51,43.7,100.88,100.0,72.0,44.9,79.86399999999999
185,6.55,43.5,100.8,100.0,72.0,44.9,79.968
186,6.58,43.4,100.8,100.0,72.0,44.9,80.036
187,6.62,45.1,100.96,100.0,72.0,44.9,80.002
188,6.65,44.2,100.8,100.0,72.0,44.9,80.036
189,6.69,44.8,100.8,100.0,72.0,44.9,80.002
190,6.72,45.5,100.96,100.0,72.0,44.9,80.036
191,6.76,46.9,100.88,100.0,72.0,44.9,79.899
192,6.79,46.6,101.04,100.0,72.0,44.9,80.002
193,6.83,45.5,100.96,100.0,72.0,44.9,80.036
194,6.86,45.9,100.72,100.0,72.0,44.9,80.002
195,6.9,46.6,100.88,100.0,72.0,44.9,79.968
196,6.94,46.3,100.8,100.0,72.0,44.9,80.036
197,6.97,43.7,100.88,100.0,72.0,44.9,79.968
198,7.01,45.0,100.88,100.0,72.0,44.9,80.071
199,7.04,47.3,100.64,100.0,72.0,44.9,79.933
200,7.08,48.7,100.8,100.0,72.0,44.9,79.899
201,7.11,46.9,100.88,100.0,72.0,44.9,80.002
202,7.15,46.1,100.88,100.0,72.0,44.9,80.036
203,7.18,45.7,100.96,100.0,72.0,44.9,80.071
204,7.22,46.2,100.8,100.0,72.0,44.9,80.002
205,7.25,44.4,100.8,100.0,72.0,44.9,79.933
206,7.29,43.0,100.88,100.0,72.0,44.9,80.002
207,7.32,44.8,100.8,100.0,72.0,44.9,80.002
208,7.36,46.5,101.04,100.0,72.0,44.9,79.83
209,7.4,46.8,100.96,100.0,72.0,44.9,80.002
210,7.43,46.2,100.8,100.0,72.0,44.9,80.071
211,7.47,44.8,100.88,100.0,72.0,44.9,79.933
212,7.5,43.7,100.96,100.0,72.0,44.9,80.002
213,7.54,44.0,100.96,100.0,72.0,44.9,80.071
214,7.57,46.0,100.88,100.0,72.0,44.9,80.036
215,7.61,46.2,100.64,100.0,72.0,44.9,79.83
216,7.64,45.8,100.8,100.0,72.0,44.9,80.036
217,7.68,44.4,100.8,100.0,72.0,44.9,80.002
218,7.71,45.6,100.72,100.0,72.0,44.9,79.86399999999999
219,7.75,44.6,100.8,100.0,72.0,44.9,80.002
220,7.78,45.8,100.56,100.0,72.0,44.9,79.899
221,7.82,44.7,100.64,100.0,72.0,44.9,80.036
222,7.86,45.8,100.64,100.0,72.0,44.9,79.968
223,7.89,46.5,100.56,100.0,72.0,44.9,79.899
224,7.93,46.4,100.56,100.0,72.0,44.9,79.796
225,7.96,46.7,100.56,100.0,72.0,44.9,80.002
226,8.0,47.6,100.48,100.0,72.0,44.9,79.933
227,8.03,46.6,100.72,100.0,72.0,44.9,79.86399999999999
228,8.07,45.1,100.8,100.0,72.0,44.9,79.899
229,8.1,45.1,100.72,100.0,72.0,44.9,79.83
230,8.14,45.8,100.8,100.0,72.0,44.9,79.968
231,8.17,44.9,100.64,100.0,72.0,44.9,79.933
232,8.21,45.8,100.8,100.0,72.0,44.9,79.933
233,8.24,46.1,100.88,100.0,72.0,44.9,80.036
234,8.28,46.3,100.64,100.0,72.0,44.9,80.002
235,8.32,45.5,100.88,100.0,72.0,44.9,79.86399999999999
236,8.35,43.7,100.72,100.0,72.0,44.9,79.899
237,8.39,41.5,100.72,100.0,72.0,44.9,79.933
238,8.42,41.4,100.64,100.0,72.0,44.9,79.899
239,8.46,41.6,100.48,100.0,72.0,44.9,79.968
240,8.49,41.8,100.8,100.0,72.0,44.9,79.933
241,8.53,43.6,100.72,100.0,72.0,44.9,79.933
242,8.56,42.5,100.72,100.0,72.0,44.9,79.933
243,8.6,43.0,100.88,100.0,72.0,44.9,79.76100000000001
244,8.63,43.9,100.72,100.0,72.0,44.9,79.899
245,8.67,43.1,100.72,100.0,72.0,44.9,80.036
246,8.7,42.0,100.8,100.0,72.0,44.9,79.899
247,8.74,42.2,100.72,100.0,72.0,44.9,79.83
248,8.78,42.4,100.88,100.0,72.0,44.9,79.796
249,8.81,44.5,100.8,100.0,72.0,44.9,80.002
250,8.85,45.0,100.72,100.0,72.0,44.9,79.83
251,8.88,46.0,100.88,100.0,72.0,44.9,79.968
252,8.92,45.2,100.8,100.0,72.0,44.9,79.86399999999999
253,8.95,46.2,100.8,100.0,72.0,44.9,79.899
254,8.99,44.8,100.8,100.0,72.0,44.9,80.071
255,9.02,45.2,100.64,100.0,72.0,44.9,79.899
256,9.06,44.0,100.8,100.0,72.0,44.9,79.899
257,9.09,44.4,100.88,100.0,72.0,44.9,79.83
258,9.13,45.1,100.8,100.0,72.0,44.9,79.727
259,9.16,46.1,100.8,100.0,72.0,44.9,79.86399999999999
260,9.2,46.9,100.8,100.0,72.0,44.9,79.86399999999999
261,9.24,48.6,100.8,100.0,72.0,44.9,79.796
262,9.27,48.8,100.88,100.0,72.0,44.9,79.83
263,9.31,49.3,100.64,100.0,72.0,44.9,79.899
264,9.34,49.1,100.8,100.0,72.0,44.9,79.589
265,9.38,48.9,100.72,100.0,72.0,44.9,79.83
266,9.41,48.5,100.64,100.0,72.0,44.9,79.589
267,9.45,46.9,100.8,100.0,72.0,44.9,79.796
268,9.48,45.8,100.64,100.0,72.0,44.9,79.83
269,9.52,46.6,100.64,100.0,72.0,44.9,79.76100000000001
270,9.55,46.7,100.72,100.0,72.0,44.9,79.968
271,9.59,47.4,100.56,100.0,72.0,44.9,79.796
272,9.62,46.1,100.8,100.0,72.0,44.9,80.002
273,9.66,48.4,100.72,100.0,72.0,44.9,79.86399999999999
274,9.7,45.9,100.56,100.0,72.0,44.9,79.933
275,9.73,48.7,100.64,100.0,72.0,44.9,79.968
276,9.77,45.5,100.64,100.0,72.0,44.9,79.796
277,9.8,47.2,100.8,100.0,72.0,44.9,79.86399999999999
278,9.84,44.8,100.88,100.0,72.0,44.9,79.968
279,9.87,46.2,100.64,100.0,72.0,44.9,79.83
280,9.91,42.6,100.8,100.0,72.0,44.9,79.76100000000001
281,9.94,42.0,100.8,100.0,72.0,44.9,79.933
282,9.98,42.6,100.8,100.0,72.0,44.9,79.727
283,10.01,42.6,100.8,100.0,72.0,44.9,79.933
284,10.05,43.9,100.64,100.0,72.0,44.9,79.796
285,10.08,44.1,100.64,100.0,72.0,44.9,80.002
286,10.12,45.2,100.64,100.0,72.0,44.9,79.899
287,10.16,45.0,100.64,100.0,72.0,44.9,79.86399999999999
288,10.19,44.8,100.8,100.0,72.0,44.9,79.76100000000001
289,10.23,45.1,100.72,100.0,72.0,44.9,79.83
290,10.26,44.9,100.48,100.0,72.0,44.9,79.968
291,10.3,44.2,100.64,100.0,72.0,44.9,79.76100000000001
292,10.33,43.9,100.64,100.0,72.0,44.9,79.83
293,10.37,43.1,100.64,100.0,72.0,44.9,79.899
294,10.4,44.4,100.72,100.0,72.0,44.9,79.76100000000001
295,10.44,44.2,100.56,100.0,72.0,44.9,79.899
296,10.47,44.0,100.8,100.0,72.0,44.9,79.86399999999999
297,10.51,44.6,100.72,100.0,72.0,44.9,79.933
298,10.54,44.6,100.56,100.0,72.0,44.9,79.968
299,10.58,46.1,100.64,100.0,72.0,44.9,79.968
300,10.62,45.5,100.56,100.0,72.0,44.9,79.899
301,10.65,45.3,100.64,100.0,72.0,44.9,79.83
302,10.69,45.4,100.72,100.0,72.0,44.9,79.968
303,10.72,45.7,100.72,100.0,72.0,44.9,79.899
304,10.76,43.9,100.8,100.0,72.0,44.9,79.899
305,10.79,43.4,100.8,100.0,72.0,44.9,79.968
306,10.83,42.6,100.72,100.0,72.0,44.9,79.899
307,10.86,43.2,100.96,100.0,72.0,44.9,79.899
308,10.9,42.1,100.8,100.0,72.0,44.9,79.86399999999999
309,10.93,42.0,100.8,100.0,72.0,44.9,79.83
310,10.97,41.7,100.8,100.0,72.0,44.9,79.968
311,11.0,40.9,100.72,100.0,72.0,44.9,79.899
312,11.04,41.0,100.88,100.0,72.0,44.9,79.933
313,11.08,41.3,100.88,100.0,72.0,44.9,79.83
314,11.11,41.2,100.72,100.0,72.0,44.9,79.933
315,11.15,41.8,100.88,100.0,72.0,44.9,79.933
316,11.18,41.2,100.72,100.0,72.0,44.9,80.002
317,11.22,41.6,100.8,100.0,72.0,44.9,79.899
318,11.25,40.2,100.8,100.0,72.0,44.9,79.899
319,11.29,41.4,100.64,100.0,72.0,44.9,79.933
320,11.32,43.0,100.48,100.0,72.0,44.9,79.796
321,11.36,46.3,100.56,100.0,72.0,44.9,79.796
322,11.39,49.1,100.48,100.0,72.0,44.9,79.933
323,11.43,49.0,100.48,100.0,72.0,44.9,79.933
324,11.46,48.3,100.4,100.0,72.0,44.9,79.933
325,11.5,48.1,100.48,100.0,72.0,44.9,79.968
326,11.54,48.6,100.56,100.0,72.0,44.9,79.796
327,11.57,48.5,100.48,100.0,72.0,44.9,80.071
328,11.61,49.5,100.64,100.0,72.0,44.9,79.899
329,11.64,49.3,100.56,100.0,72.0,44.9,79.86399999999999
330,11.68,48.7,100.32,100.0,72.0,44.9,80.002
331,11.71,48.0,100.64,100.0,72.0,44.9,80.105
332,11.75,48.1,100.48,100.0,72.0,44.9,80.208
333,11.78,45.5,100.56,100.0,72.0,44.9,80.036
334,11.82,46.0,100.48,100.0,72.0,44.9,80.036
335,11.85,46.7,100.24,100.0,72.0,44.9,79.968
336,11.89,48.1,100.56,100.0,72.0,44.9,79.86399999999999
337,11.92,48.8,100.56,100.0,72.0,44.9,80.036
338,11.96,48.0,100.48,100.0,72.0,44.9,80.105
339,12.0,47.2,100.48,100.0,72.0,44.9,80.036
340,12.03,46.9,100.4,100.0,72.0,44.9,80.002
341,12.07,46.3,100.56,100.0,72.0,44.9,79.968
342,12.1,47.1,100.64,100.0,72.0,44.9,79.968
343,12.14,47.8,100.4,100.0,72.0,44.9,80.105
344,12.17,46.6,100.48,100.0,72.0,44.9,80.071
345,12.21,43.9,100.48,100.0,72.0,44.9,80.002
346,12.24,44.7,100.32,100.0,72.0,44.9,80.002
347,12.28,48.3,100.48,100.0,72.0,44.9,80.105
348,12.31,45.5,100.32,100.0,72.0,44.9,79.968
349,12.35,46.4,100.4,100.0,72.0,44.9,80.139
350,12.38,44.7,100.48,100.0,72.0,44.9,80.036
351,12.42,48.9,100.32,100.0,72.0,44.9,79.968
352,12.46,47.2,100.56,100.0,72.0,44.9,80.071
353,12.49,47.3,100.48,100.0,72.0,44.9,80.036
354,12.53,47.1,100.16,100.0,72.0,44.9,80.071
355,12.56,47.3,100.4,100.0,72.0,44.9,80.002
356,12.6,47.2,100.48,100.0,72.0,44.9,79.968
357,12.63,46.0,100.48,100.0,72.0,44.9,80.002
358,12.67,42.7,100.56,100.0,72.0,44.9,80.105
359,12.7,45.5,100.4,100.0,72.0,44.9,80.139
360,12.74,47.7,100.56,100.0,72.0,44.9,80.036
361,12.77,45.1,100.48,100.0,72.0,44.9,80.105
362,12.81,41.8,100.4,100.0,72.0,44.9,80.002
363,12.84,41.8,100.56,100.0,72.0,44.9,80.002
364,12.88,42.9,100.4,100.0,72.0,44.9,80.036
365,12.92,42.3,100.4,100.0,72.0,44.9,80.036
366,12.95,41.9,100.48,100.0,72.0,44.9,80.071
367,12.99,43.1,100.32,100.0,72.0,44.9,80.105
368,13.02,43.1,100.48,100.0,72.0,44.9,80.139
369,13.06,42.1,100.48,100.0,72.0,44.9,80.139
370,13.09,41.5,100.4,100.0,72.0,44.9,80.105
371,13.13,41.8,100.56,100.0,72.0,44.9,80.105
372,13.16,43.3,100.48,100.0,72.0,44.9,80.243
373,13.2,42.9,100.64,100.0,72.0,44.9,80.071
374,13.23,43.6,100.64,100.0,72.0,44.9,80.105
375,13.27,43.6,100.4,100.0,72.0,44.9,80.105
376,13.3,43.4,100.56,100.0,72.0,44.9,80.277
377,13.34,44.8,100.64,100.0,72.0,44.9,80.243
378,13.38,44.6,100.48,100.0,72.0,44.9,80.105
379,13.41,45.1,100.56,100.0,72.0,44.9,80.105
380,13.45,46.1,100.4,100.0,72.0,44.9,80.105
381,13.48,46.1,100.32,100.0,72.0,44.9,80.17399999999999
382,13.52,46.3,100.48,100.0,72.0,44.9,80.139
383,13.55,46.3,100.32,100.0,72.0,44.9,80.071
384,13.59,45.9,100.4,100.0,72.0,44.9,80.105
385,13.62,44.2,100.4,100.0,72.0,44.9,80.17399999999999
386,13.66,41.6,100.32,100.0,72.0,44.9,80.17399999999999
387,13.69,41.2,100.48,100.0,72.0,44.9,80.071
388,13.73,41.1,100.48,100.0,72.0,44.9,80.243
389,13.76,41.6,100.32,100.0,72.0,44.9,79.933
390,13.8,42.9,100.4,100.0,72.0,44.9,80.105
391,13.84,43.1,100.32,100.0,72.0,44.9,80.208
392,13.87,42.7,100.4,100.0,72.0,44.9,80.071
393,13.91,41.9,100.48,100.0,72.0,44.9,80.002
394,13.94,40.8,100.24,100.0,72.0,44.9,80.002
395,13.98,40.6,100.4,100.0,72.0,44.9,80.139
396,14.01,40.0,100.4,100.0,72.0,44.9,80.105
397,14.05,42.0,100.32,100.0,72.0,44.9,80.071
398,14.08,41.7,100.48,100.0,72.0,44.9,80.002
399,14.12,42.4,100.24,100.0,72.0,44.9,80.17399999999999
400,14.15,43.2,100.32,100.0,72.0,44.9,80.139
401,14.19,44.7,100.48,100.0,72.0,44.9,80.105
402,14.22,45.4,100.4,100.0,72.0,44.9,80.17399999999999
403,14.26,45.9,100.56,100.0,72.0,44.9,80.105
404,14.3,45.6,100.48,100.0,72.0,44.9,80.105
405,14.33,46.0,100.32,100.0,72.0,44.9,80.17399999999999
406,14.37,46.0,100.56,100.0,72.0,44.9,80.071
407,14.4,45.6,100.4,100.0,72.0,44.9,80.002
408,14.44,45.5,100.48,100.0,72.0,44.9,80.071
409,14.47,44.9,100.48,100.0,72.0,44.9,80.105
410,14.51,45.0,100.4,100.0,72.0,44.9,80.105
411,14.54,44.2,100.72,100.0,72.0,44.9,80.105
412,14.58,44.9,100.64,100.0,72.0,44.9,80.105
413,14.61,43.8,100.56,100.0,72.0,44.9,80.17399999999999
414,14.65,42.7,100.56,100.0,72.0,44.9,79.933
415,14.68,42.8,100.4,100.0,72.0,44.9,80.036
416,14.72,41.6,100.48,100.0,72.0,44.9,79.968
417,14.76,42.0,100.64,100.0,72.0,44.9,79.899
418,14.79,41.2,100.48,100.0,72.0,44.9,80.139
419,14.83,42.0,100.56,100.0,72.0,44.9,80.139
420,14.86,42.1,100.4,100.0,72.0,44.9,80.17399999999999
421,14.9,41.3,100.32,100.0,72.0,44.9,80.036
422,14.93,42.9,100.64,100.0,72.0,44.9,80.036
423,14.97,42.5,100.48,100.0,72.0,44.9,79.968
424,15.0,41.9,100.48,100.0,72.0,44.9,80.071
425,15.04,41.5,100.56,100.0,72.0,44.9,80.139
426,15.07,43.7,100.4,100.0,72.0,44.9,80.17399999999999
427,15.11,44.5,100.64,100.0,72.0,44.9,80.071
428,15.14,43.9,100.48,100.0,72.0,44.9,80.105
429,15.18,44.4,100.32,100.0,72.0,44.9,80.002
430,15.22,42.6,100.48,100.0,72.0,44.9,79.968
431,15.25,42.0,100.48,100.0,72.0,44.9,79.933
432,15.29,42.8,100.64,100.0,72.0,44.9,80.071
433,15.32,43.5,100.64,100.0,72.0,44.9,79.968
434,15.36,43.3,100.32,100.0,72.0,44.9,80.071
435,15.39,44.2,100.48,100.0,72.0,44.9,80.036
436,15.43,42.9,100.48,100.0,72.0,44.9,79.968
437,15.46,42.9,100.32,100.0,72.0,44.9,80.002
438,15.5,44.9,100.48,100.0,72.0,44.9,80.105
439,15.53,42.2,100.4,100.0,72.0,44.9,79.86399999999999
440,15.57,42.9,100.32,100.0,72.0,44.9,80.036
441,15.6,43.1,100.48,100.0,72.0,44.9,79.899
